time	V(N002,VDD)*Id(M1)+V(N002,VDD)*Ig(M1)	V(N003,VDD)*Id(M2)+V(N002,VDD)*Ig(M2)	V(N003,VDD)*Id(M3)+V(N001,VDD)*Ig(M3)	V(N001,VDD)*Id(M5)+V(N003,VDD)*Ig(M5)	V(Vout,VDD)*Id(M7)+V(N001,VDD)*Ig(M7)	V(Vout)*Id(M8)+V(N001)*Ig(M8)	V(N001)*Id(M6)+V(N003)*Ig(M6)	V(N003)*Id(M4)+V(Vout)*Ig(M4)	V(N003)*I(C1)	V(Vout)*I(C2)
0.000000000000000e+00	1.099188e-07	5.137903e-08	4.805575e-10	4.077969e-10	7.909146e-11	6.232173e-10	3.305879e-10	4.522260e-08	1.493949e-28	5.421591e-28
1.329669641832460e-07	1.099179e-07	5.136374e-08	4.798418e-10	4.064198e-10	7.896561e-11	6.239604e-10	3.318589e-10	4.522696e-08	2.031825e-12	-3.668021e-13
2.659339283664920e-07	1.099175e-07	5.135762e-08	4.795749e-10	4.058842e-10	7.892470e-11	6.242360e-10	3.323530e-10	4.522883e-08	2.805542e-12	-5.046467e-13
3.989008925497380e-07	1.099177e-07	5.136065e-08	4.797565e-10	4.061897e-10	7.896876e-11	6.240443e-10	3.320699e-10	4.522823e-08	2.320308e-12	-4.135464e-13
5.318678567329840e-07	1.099186e-07	5.137285e-08	4.803867e-10	4.073365e-10	7.909777e-11	6.233852e-10	3.310098e-10	4.522515e-08	5.765951e-13	-9.349364e-14
6.648348209162300e-07	1.099200e-07	5.139421e-08	4.814660e-10	4.093254e-10	7.931174e-11	6.222587e-10	3.291738e-10	4.521958e-08	-2.423818e-12	4.555399e-13
7.978017850994760e-07	1.099220e-07	5.142475e-08	4.829955e-10	4.121583e-10	7.961066e-11	6.206647e-10	3.265635e-10	4.521152e-08	-6.677839e-12	1.233603e-12
9.307687492827217e-07	1.099246e-07	5.146445e-08	4.849764e-10	4.158374e-10	7.999454e-11	6.186034e-10	3.231815e-10	4.520093e-08	-1.218107e-11	2.240764e-12
9.516950885684361e-07	1.099270e-07	5.167203e-08	4.837546e-10	4.258351e-10	7.642958e-11	6.206621e-10	3.145644e-10	4.506814e-08	-1.713853e-11	2.180236e-12
9.726214278541503e-07	1.099267e-07	5.179294e-08	4.813333e-10	4.302639e-10	7.352371e-11	6.238528e-10	3.109182e-10	4.497911e-08	-1.643971e-11	1.337792e-12
9.935477671398647e-07	1.099237e-07	5.182702e-08	4.776979e-10	4.290992e-10	7.127828e-11	6.281769e-10	3.122179e-10	4.493412e-08	-1.012041e-11	-2.865032e-13
1.014474106425579e-06	1.099181e-07	5.177424e-08	4.728530e-10	4.223506e-10	6.969215e-11	6.336332e-10	3.184740e-10	4.493315e-08	1.839688e-12	-2.692124e-12
1.035400445711293e-06	1.099097e-07	5.163468e-08	4.668222e-10	4.100623e-10	6.876173e-11	6.402175e-10	3.297331e-10	4.497594e-08	1.951707e-11	-5.878084e-12
1.056326784997008e-06	1.098986e-07	5.140857e-08	4.596483e-10	3.923126e-10	6.848090e-11	6.479232e-10	3.460775e-10	4.506191e-08	4.304434e-11	-9.842934e-12
1.077253124282722e-06	1.098848e-07	5.109629e-08	4.513935e-10	3.692143e-10	6.884111e-11	6.567407e-10	3.676250e-10	4.519026e-08	7.261027e-11	-1.458476e-11
1.089808927854151e-06	1.098737e-07	5.064641e-08	4.481087e-10	3.447442e-10	7.360905e-11	6.584602e-10	3.933021e-10	4.543344e-08	9.704345e-11	-1.729894e-11
1.102364731425579e-06	1.098671e-07	5.021375e-08	4.495450e-10	3.252448e-10	8.037674e-11	6.552670e-10	4.153293e-10	4.569558e-08	1.117687e-10	-1.785105e-11
1.114920534997008e-06	1.098653e-07	4.979812e-08	4.556157e-10	3.105622e-10	8.917641e-11	6.471942e-10	4.335287e-10	4.597750e-08	1.165298e-10	-1.624378e-11
1.127476338568437e-06	1.098680e-07	4.939932e-08	4.662355e-10	3.005456e-10	1.000505e-10	6.342859e-10	4.477193e-10	4.627995e-08	1.110886e-10	-1.247880e-11
1.140032142139865e-06	1.098754e-07	4.901717e-08	4.813205e-10	2.950473e-10	1.130520e-10	6.165968e-10	4.577164e-10	4.660363e-08	9.522527e-11	-6.556725e-12
1.152587945711294e-06	1.098874e-07	4.865151e-08	5.007883e-10	2.939227e-10	1.282438e-10	5.941922e-10	4.633324e-10	4.694921e-08	6.873842e-11	1.522853e-12
1.165143749282722e-06	1.099040e-07	4.830218e-08	5.245578e-10	2.970303e-10	1.456994e-10	5.671482e-10	4.643760e-10	4.731730e-08	3.144478e-11	1.176137e-11
1.184674999282722e-06	1.099537e-07	4.843601e-08	5.749837e-10	3.378926e-10	1.691072e-10	5.203119e-10	4.131051e-10	4.758455e-08	-8.019338e-11	3.501265e-11
1.204206249282722e-06	1.100260e-07	4.945559e-08	6.368836e-10	4.245378e-10	1.831506e-10	4.754458e-10	3.074681e-10	4.737620e-08	-2.375712e-10	6.333253e-11
1.213971874282722e-06	1.100692e-07	5.039832e-08	6.707965e-10	4.923766e-10	1.836651e-10	4.565535e-10	2.379553e-10	4.700005e-08	-3.265746e-10	7.801258e-11
1.223737499282722e-06	1.101153e-07	5.167381e-08	7.051311e-10	5.828376e-10	1.778648e-10	4.415062e-10	1.630145e-10	4.638880e-08	-4.158380e-10	9.203341e-11
1.233503124282722e-06	1.101625e-07	5.330291e-08	7.374235e-10	7.028730e-10	1.637306e-10	4.315813e-10	8.875812e-11	4.550516e-08	-4.989172e-10	1.045663e-10
1.243268749282723e-06	1.102082e-07	5.529167e-08	7.632507e-10	8.618012e-10	1.384283e-10	4.285532e-10	2.182670e-11	4.432008e-08	-5.688736e-10	1.147742e-10
1.253034374282723e-06	1.102494e-07	5.762690e-08	7.753711e-10	1.071496e-09	9.798728e-11	4.353084e-10	-3.151548e-11	4.281845e-08	-6.190274e-10	1.217939e-10
1.262799999282723e-06	1.102828e-07	6.027090e-08	7.633520e-10	1.345490e-09	3.729946e-11	4.569827e-10	-6.602175e-11	4.100522e-08	-6.436454e-10	1.246327e-10
1.272565624282723e-06	1.103042e-07	6.315462e-08	7.147661e-10	1.695150e-09	-4.903033e-11	5.031439e-10	-7.764042e-11	3.891200e-08	-6.383066e-10	1.218815e-10
1.282331249282723e-06	1.103080e-07	6.616596e-08	6.193979e-10	2.119241e-09	-1.642116e-10	5.920428e-10	-6.328550e-11	3.660416e-08	-5.994308e-10	1.107685e-10
1.292096874282723e-06	1.102848e-07	6.912411e-08	4.768202e-10	2.580090e-09	-3.043894e-10	7.586254e-10	-2.069138e-11	3.418883e-08	-5.215396e-10	8.398469e-11
1.301862499282723e-06	1.102141e-07	7.171229e-08	3.030663e-10	2.956337e-09	-4.512039e-10	1.067554e-09	5.013552e-11	3.182883e-08	-3.888819e-10	2.103434e-11
1.311628124282723e-06	1.100497e-07	7.331674e-08	1.239531e-10	2.979135e-09	-5.652255e-10	1.623485e-09	1.416085e-10	2.978228e-08	-1.553503e-10	-1.261717e-10
1.321393749282723e-06	1.097056e-07	7.277091e-08	-5.841663e-11	2.274998e-09	-6.058383e-10	2.560247e-09	2.439986e-10	2.848920e-08	2.980595e-10	-4.290463e-10
1.331159374282723e-06	1.090764e-07	6.825175e-08	-2.757028e-10	7.435657e-10	-5.784105e-10	4.023085e-09	4.338791e-10	2.848786e-08	1.266804e-09	-9.390838e-10
1.340924999282723e-06	1.081054e-07	5.780764e-08	-4.921879e-10	-1.002865e-09	-5.242295e-10	6.178477e-09	1.264643e-09	2.956981e-08	3.434476e-09	-1.700074e-09
1.350690624282723e-06	1.070868e-07	4.135458e-08	-2.111073e-10	-1.727782e-09	-9.040775e-11	6.760375e-09	6.762860e-09	2.997466e-08	7.269541e-09	-2.399592e-09
1.360456249282723e-06	1.070053e-07	2.245994e-08	4.717646e-09	4.211816e-10	4.188100e-09	2.334670e-09	2.602385e-08	2.749371e-08	9.702960e-09	-2.438633e-09
1.370221874282723e-06	1.089186e-07	1.045086e-08	1.357718e-08	3.368532e-09	1.310402e-08	3.025467e-09	1.638278e-08	7.305621e-08	3.446126e-09	4.924672e-09
1.379987499282723e-06	1.142305e-07	1.793289e-08	2.119438e-08	3.110376e-10	6.660383e-09	2.740998e-09	-6.896419e-09	1.684502e-07	-1.545819e-08	8.779853e-09
1.389753124282723e-06	1.164693e-07	5.940393e-08	4.722702e-08	2.219712e-08	-3.756256e-09	-1.323326e-09	-6.694592e-09	1.093493e-07	-1.148433e-08	9.034538e-11
1.399518749282723e-06	1.123652e-07	9.662680e-08	2.800786e-08	4.341940e-08	-9.118905e-09	2.525359e-09	7.266529e-10	2.363079e-08	-1.162875e-09	7.400809e-10
1.409284374282723e-06	1.093690e-07	1.021995e-07	4.481549e-09	2.260460e-08	-4.833154e-09	4.353703e-08	2.812807e-09	-1.028002e-09	1.534418e-10	-1.511180e-08
1.419049999282723e-06	1.057040e-07	7.918672e-08	-1.516093e-09	-3.222597e-09	3.586129e-09	4.702603e-08	1.384402e-09	1.450897e-09	4.458896e-09	-1.822711e-08
1.428815624282723e-06	1.036469e-07	3.992761e-08	-2.375377e-09	-5.812647e-09	1.492980e-09	1.897391e-09	3.494300e-08	3.728463e-09	1.579737e-08	-1.979643e-09
1.438581249282723e-06	1.067189e-07	1.029417e-08	7.720736e-09	2.324015e-09	2.354070e-08	-1.141403e-08	5.272356e-08	1.081043e-09	1.161488e-08	2.531633e-10
1.448346874282723e-06	1.094010e-07	1.306857e-09	9.721723e-09	3.868479e-09	5.471721e-08	3.483192e-10	1.353363e-08	2.423481e-08	1.963257e-09	1.024419e-08
1.458112499282723e-06	1.131711e-07	2.807882e-09	6.096956e-09	-1.690231e-09	2.050207e-08	4.682178e-09	-6.806276e-09	1.341282e-07	-1.352862e-08	2.098447e-08
1.467878124282723e-06	1.176080e-07	3.815302e-08	7.493387e-08	2.198089e-09	4.219997e-09	-9.914309e-10	-8.794249e-09	1.935717e-07	-1.982180e-08	-1.345613e-08
1.469098827407723e-06	1.162874e-07	4.421168e-08	8.856986e-08	2.362864e-09	3.253394e-09	-8.908165e-10	-6.516198e-09	1.809270e-07	-1.469553e-08	-1.146475e-08
1.471540233657723e-06	1.125312e-07	4.923562e-08	1.032794e-07	1.355133e-09	8.620717e-10	2.227205e-10	-2.201601e-09	1.565419e-07	-4.685029e-09	-8.507700e-10
1.476423046157723e-06	1.108815e-07	5.380576e-08	1.150091e-07	1.481117e-09	7.737064e-11	6.367908e-11	-9.351931e-10	1.415141e-07	-1.886934e-09	3.160902e-10
1.486188671157723e-06	1.106243e-07	5.959218e-08	1.232454e-07	2.402812e-09	-2.563544e-10	-9.129436e-11	-6.771600e-10	1.238390e-07	-1.258154e-09	-1.002504e-11
1.495954296157723e-06	1.108163e-07	6.589418e-08	1.260701e-07	4.409779e-09	-4.966872e-10	-1.762667e-10	-8.247061e-10	1.053921e-07	-1.421000e-09	3.387094e-12
1.505719921157723e-06	1.119625e-07	7.857268e-08	1.083060e-07	1.884287e-08	-3.221101e-09	-1.156478e-09	-1.549261e-09	7.080305e-08	-2.353601e-09	2.120244e-10
1.515485546157723e-06	1.120182e-07	9.658800e-08	5.314992e-08	4.278610e-08	-9.143805e-09	-9.142417e-10	1.472638e-10	2.747299e-08	-1.046364e-09	2.563617e-09
1.525251171157723e-06	1.083898e-07	9.554800e-08	7.965844e-09	2.490474e-08	-7.203937e-09	3.854190e-08	2.206744e-09	3.582393e-09	8.091816e-10	-1.308888e-08
1.535016796157723e-06	1.045221e-07	6.530746e-08	-1.972705e-09	-2.531510e-09	1.857717e-09	5.141571e-08	4.774794e-09	-2.289852e-10	8.344656e-09	-2.141392e-08
1.544782421157723e-06	1.048376e-07	2.883096e-08	1.586318e-09	-2.530635e-09	4.034448e-09	1.230835e-09	3.953596e-08	4.945841e-09	1.510585e-08	-3.395243e-09
1.554548046157723e-06	1.075207e-07	6.301273e-09	1.073902e-08	4.361212e-09	3.728609e-08	-6.100134e-09	3.208115e-08	1.394898e-10	9.094979e-09	1.103105e-10
1.564313671157723e-06	1.100286e-07	7.155254e-10	3.642079e-09	1.240549e-09	5.338125e-08	2.225779e-09	3.012885e-09	3.567472e-08	-8.567860e-10	1.260445e-08
1.574079296157723e-06	1.123409e-07	4.305666e-09	8.788304e-09	-1.040167e-09	1.704268e-08	4.451947e-09	-4.730975e-09	1.506878e-07	-9.712495e-09	1.950941e-08
1.583844921157723e-06	1.134608e-07	2.448268e-08	5.010221e-08	-2.337426e-10	2.583906e-09	1.258309e-09	-5.301961e-09	2.048133e-07	-1.106609e-08	2.850879e-09
1.593610546157723e-06	1.130525e-07	4.969666e-08	9.292728e-08	2.454821e-09	-8.232655e-10	-2.945980e-10	-3.207712e-09	1.538003e-07	-6.721309e-09	-8.396023e-11
1.603376171157723e-06	1.121343e-07	7.042928e-08	1.140073e-07	9.303171e-09	-5.675445e-10	-1.892934e-10	-1.720347e-09	9.317912e-08	-3.056901e-09	1.481061e-10
1.613141796157723e-06	1.119703e-07	8.832213e-08	8.906988e-08	3.088213e-08	-6.236634e-09	-1.981778e-09	-1.047273e-09	4.623150e-08	-1.623897e-09	1.369447e-09
1.622907421157723e-06	1.114890e-07	1.069394e-07	4.490017e-09	5.666974e-08	-1.218275e-08	-1.039557e-09	2.577820e-09	1.214941e-08	-1.510445e-10	5.279761e-09
1.624128124282723e-06	1.110972e-07	1.081482e-07	-1.848859e-09	5.475104e-08	-1.205221e-08	6.699132e-10	3.357101e-09	1.015647e-08	-7.371132e-11	6.289338e-09
1.626569530532723e-06	1.102689e-07	1.080718e-07	-3.557919e-10	4.225226e-08	-9.930082e-09	1.394905e-08	4.526115e-09	5.206232e-09	-2.264883e-11	2.808413e-09
1.631452343032723e-06	1.088138e-07	1.020184e-07	1.346350e-09	1.749247e-08	-3.820134e-09	6.040540e-08	3.489692e-09	-6.678533e-09	3.093784e-10	-2.237802e-08
1.641217968032723e-06	1.041353e-07	7.006900e-08	-2.630852e-09	-7.547959e-09	5.944014e-09	3.098000e-08	9.220007e-10	3.955841e-09	7.970540e-09	-1.000145e-08
1.647779964438791e-06	1.028612e-07	4.206443e-08	-3.015041e-09	-7.184904e-09	4.237903e-10	2.884088e-10	2.593503e-08	3.664912e-09	1.766479e-08	-2.741299e-10
1.655154782426490e-06	1.054523e-07	1.601813e-08	3.796480e-09	-4.508147e-10	1.256526e-08	-1.316182e-08	6.269913e-08	2.874848e-09	1.543885e-08	2.636921e-11
1.664920407426490e-06	1.086783e-07	2.108309e-09	1.253748e-08	5.205598e-09	6.235365e-08	-1.051235e-09	2.373777e-08	-8.034564e-10	4.799346e-09	2.704675e-09
1.674041128076272e-06	1.123721e-07	-2.519130e-10	-4.309412e-09	-2.617760e-09	3.881227e-08	3.424421e-09	-6.552524e-09	6.195016e-08	-1.109895e-08	2.047301e-08
1.682629898883934e-06	1.165273e-07	1.974523e-08	4.257192e-09	1.986461e-09	6.706386e-09	2.422080e-09	-1.128705e-08	1.258883e-07	-1.986818e-08	1.486020e-08
1.691995372688049e-06	1.144723e-07	8.167059e-08	6.150001e-08	1.709697e-08	-2.035289e-10	1.176854e-09	-2.122156e-09	6.191761e-08	-4.430018e-09	4.737238e-09
1.693216075813049e-06	1.141824e-07	8.811922e-08	6.416367e-08	2.265718e-08	-1.900251e-09	3.800341e-10	-1.722315e-09	5.037318e-08	-3.372509e-09	4.370062e-09
1.695657482063049e-06	1.138503e-07	9.656427e-08	4.893846e-08	3.993726e-08	-6.531884e-09	-1.779599e-09	-9.217583e-10	3.259875e-08	-2.129398e-09	3.142014e-09
1.700540294563049e-06	1.109619e-07	1.062709e-07	4.990423e-09	5.872722e-08	-1.374892e-08	-1.652928e-09	1.990806e-09	1.081344e-08	-1.237937e-10	6.612107e-09
1.701760997688049e-06	1.105018e-07	1.073234e-07	-9.906246e-10	5.704998e-08	-1.349388e-08	-2.571597e-10	2.786236e-09	9.180067e-09	-4.321476e-11	7.384795e-09
1.704202403938049e-06	1.102654e-07	1.078561e-07	-7.273194e-10	4.591814e-08	-1.073898e-08	9.301338e-09	4.155759e-09	6.625821e-09	-3.269892e-11	4.588927e-09
1.709085216438049e-06	1.088756e-07	1.025594e-07	1.143290e-09	1.998067e-08	-4.813027e-09	5.522897e-08	3.581581e-09	-5.320366e-09	2.804905e-10	-1.962963e-08
1.717621060471379e-06	1.046058e-07	7.449395e-08	-2.422615e-09	-6.261574e-09	5.232864e-09	4.863808e-08	4.276752e-10	-1.067186e-09	6.398209e-09	-1.910380e-08
1.724808317229559e-06	1.030926e-07	4.354389e-08	-2.869489e-09	-7.025338e-09	2.231783e-09	4.434180e-09	2.356145e-08	3.755965e-09	1.660472e-08	-1.714980e-09
1.732544183336342e-06	1.054831e-07	1.616351e-08	4.377469e-09	-1.111444e-10	1.297902e-08	-1.217476e-08	5.889267e-08	2.614269e-09	1.533966e-08	6.586274e-11
1.742309808336342e-06	1.086812e-07	2.181616e-09	1.232715e-08	5.108582e-09	5.582981e-08	-1.272702e-09	2.338259e-08	2.380905e-09	4.787071e-09	5.003640e-09
1.752075433336342e-06	1.146554e-07	1.410193e-09	-3.945438e-09	-2.054026e-09	2.931084e-08	3.783855e-09	-1.027992e-08	9.051002e-08	-1.908692e-08	2.123324e-08
1.761841058336342e-06	1.179255e-07	4.492767e-08	1.343043e-09	2.650458e-08	-3.146224e-09	1.645622e-10	-1.030447e-08	9.143230e-08	-1.475377e-08	9.847403e-09
1.771501811717834e-06	1.050763e-07	1.024622e-07	-4.458054e-09	4.526028e-08	-1.498758e-08	3.303224e-09	2.549339e-09	4.172064e-09	7.960625e-10	1.433481e-08
1.772657441957685e-06	1.054428e-07	1.044914e-07	-4.415478e-09	4.185584e-08	-1.319103e-08	5.471028e-09	3.097552e-09	3.896920e-09	3.964660e-10	1.320487e-08
1.774968702437387e-06	1.091115e-07	1.062229e-07	3.252878e-10	3.249783e-08	-7.661756e-09	1.969252e-08	4.480596e-09	3.715165e-09	4.253930e-11	4.193032e-10
1.779591223396790e-06	1.083580e-07	9.906171e-08	9.191756e-10	1.116520e-08	-2.181896e-09	6.537035e-08	2.552624e-09	-7.463207e-09	6.104422e-10	-2.591016e-08
1.787659395336127e-06	1.039763e-07	6.871312e-08	-2.813659e-09	-7.514729e-09	5.988607e-09	3.816353e-08	8.924334e-10	1.202643e-09	8.423534e-09	-1.402268e-08
1.793978131588679e-06	1.030445e-07	4.110183e-08	-2.691646e-09	-6.666930e-09	1.472083e-09	2.043151e-09	2.467734e-08	4.054509e-09	1.747148e-08	-8.599313e-10
1.801241460171415e-06	1.054852e-07	1.579923e-08	4.252765e-09	-1.045239e-10	1.262136e-08	-1.240087e-08	5.967497e-08	2.556730e-09	1.549622e-08	9.396951e-11
1.811007085171415e-06	1.087010e-07	2.090387e-09	1.227766e-08	5.097937e-09	5.703984e-08	-7.913004e-10	2.297209e-08	1.683495e-09	4.691530e-09	4.826404e-09
1.820538466536935e-06	1.142808e-07	1.004072e-09	-3.749921e-09	-2.302289e-09	3.110222e-08	3.814829e-09	-9.561965e-09	8.590404e-08	-1.785968e-08	2.118462e-08
1.830304091536935e-06	1.179073e-07	4.267137e-08	1.590905e-09	2.472426e-08	-2.208144e-09	2.793301e-10	-1.030244e-08	9.487423e-08	-1.547988e-08	9.981017e-09
1.839723810373890e-06	1.066064e-07	1.024643e-07	-3.462317e-09	4.923733e-08	-1.500730e-08	1.468483e-09	2.314561e-09	7.227588e-09	7.580660e-10	1.188885e-08
1.840944513498890e-06	1.066172e-07	1.048440e-07	-4.111728e-09	4.628154e-08	-1.363818e-08	3.202675e-09	2.857230e-09	5.953018e-09	3.855034e-10	1.164069e-08
1.843385919748890e-06	1.094597e-07	1.063708e-07	-1.979977e-10	3.616710e-08	-8.433314e-09	1.502923e-08	4.258951e-09	5.283319e-09	1.510098e-11	2.348877e-09
1.848268732248890e-06	1.086540e-07	9.975426e-08	1.032291e-09	1.421805e-08	-2.883023e-09	5.857643e-08	2.928082e-09	-5.145693e-09	4.726775e-10	-2.221041e-08
1.857495347107827e-06	1.040133e-07	6.709083e-08	-2.656141e-09	-7.280450e-09	5.773186e-09	3.258116e-08	1.574774e-09	3.509284e-09	8.783350e-09	-1.112778e-08
1.864164841936498e-06	1.031351e-07	3.875886e-08	-2.626222e-09	-6.389718e-09	-2.800583e-11	-1.011245e-09	3.045971e-08	3.635206e-09	1.786328e-08	-3.924037e-10
1.871653804515971e-06	1.057895e-07	1.377882e-08	5.016075e-09	5.278025e-10	1.381615e-08	-1.379761e-08	6.219412e-08	1.682599e-09	1.465528e-08	7.017407e-10
1.881419429515971e-06	1.089677e-07	1.731350e-09	1.186352e-08	4.865447e-09	5.345354e-08	1.438070e-09	2.045833e-08	9.277002e-09	3.698527e-09	7.594817e-09
1.890830993316024e-06	1.141766e-07	1.681100e-09	-7.929403e-11	-2.042716e-09	2.515030e-08	4.331392e-09	-8.954353e-09	1.019081e-07	-1.738318e-08	2.171361e-08
1.900596618316024e-06	1.177556e-07	4.363828e-08	1.758287e-08	2.318873e-08	-1.980243e-09	-2.097230e-10	-8.982601e-09	1.050448e-07	-1.543887e-08	5.378608e-09
1.909659494583398e-06	1.132021e-07	9.488501e-08	2.011842e-08	4.441016e-08	-8.843012e-09	3.557227e-09	6.373568e-10	2.643827e-08	-1.741249e-09	-2.006140e-10
1.919425119583398e-06	1.093723e-07	1.023785e-07	4.065972e-09	2.166577e-08	-4.443237e-09	4.436749e-08	2.838610e-09	-1.524385e-09	1.413130e-10	-1.574521e-08
1.929190744583398e-06	1.058450e-07	8.004707e-08	-1.442214e-09	-3.342482e-09	3.844128e-09	4.536091e-08	1.287223e-09	2.059103e-09	4.207554e-09	-1.732550e-08
1.938956369583398e-06	1.035440e-07	4.065481e-08	-2.607161e-09	-6.105885e-09	1.393602e-09	1.757273e-09	3.506038e-08	3.668891e-09	1.586027e-08	-1.756466e-09
1.948721994583398e-06	1.066742e-07	1.054886e-08	7.425139e-09	2.108656e-09	2.257764e-08	-1.204865e-08	5.498768e-08	1.130703e-09	1.172523e-08	2.759141e-10
1.958487619583398e-06	1.093686e-07	1.345714e-09	1.010594e-08	4.030870e-09	5.455275e-08	1.584471e-10	1.455120e-08	2.315068e-08	2.115827e-09	1.006794e-08
1.968253244583398e-06	1.133317e-07	2.819198e-09	5.659296e-09	-1.775769e-09	2.065902e-08	4.647658e-09	-7.140471e-09	1.316620e-07	-1.416179e-08	2.103925e-08
1.978018869583398e-06	1.149041e-07	3.058040e-08	5.690675e-08	1.156191e-09	2.966153e-09	1.446201e-09	-6.424317e-09	1.726898e-07	-1.308979e-08	3.934100e-09
1.987784494583398e-06	1.074884e-07	6.239816e-08	1.385734e-07	3.186354e-10	-3.566666e-09	2.435155e-09	2.456046e-09	1.085545e-07	5.642758e-09	1.199044e-08
1.989005197708398e-06	1.076087e-07	6.318834e-08	1.389770e-07	7.803467e-10	-3.112971e-09	1.741985e-09	2.021765e-09	1.072538e-07	4.681373e-09	9.626686e-09
1.991446603958398e-06	1.097179e-07	6.330769e-08	1.306997e-07	2.842767e-09	-8.128742e-10	-2.058356e-10	-1.742615e-10	1.121367e-07	-1.137252e-10	7.754066e-10
1.996329416458398e-06	1.107371e-07	6.614908e-08	1.275633e-07	4.307169e-09	-5.661267e-10	-2.265839e-10	-7.605714e-10	1.047678e-07	-1.303037e-09	-2.481406e-10
2.006095041458398e-06	1.119378e-07	7.898782e-08	1.073425e-07	1.928345e-08	-3.359266e-09	-1.211128e-09	-1.522437e-09	6.940413e-08	-2.296313e-09	1.728997e-10
2.015860666458398e-06	1.119960e-07	9.681959e-08	5.135375e-08	4.290833e-08	-9.185105e-09	-7.116524e-10	2.122240e-10	2.684821e-08	-1.018366e-09	2.590091e-09
2.025626291458398e-06	1.085088e-07	9.630972e-08	7.584168e-09	2.475143e-08	-7.008947e-09	3.914599e-08	2.262623e-09	3.118054e-09	7.108237e-10	-1.321480e-08
2.035391916458398e-06	1.046317e-07	6.676175e-08	-1.961625e-09	-2.669985e-09	1.994786e-09	5.152790e-08	4.202300e-09	-1.315930e-10	7.887555e-09	-2.139604e-08
